# Energy budget of the u_r u_z Reynolds shear stress
#
# r/D     TD      PR      VP      VD      DS      SUM
.01042 -.86415E+00 .16868E+00 -.34781E-01 .46844E+00 -.57352E+00 -.83534E+00 
.01562 -.27317E+00 .34449E+00 -.21531E+00 .32701E+00 -.41100E+00 -.22797E+00 
.02083 -.12108E+00 .51849E+00 -.38110E+00 .25302E+00 -.34156E+00 -.72238E-01 
.02604 -.46003E-01 .68839E+00 -.54456E+00 .21009E+00 -.30846E+00 -.53772E-03 
.03125 .19920E-01 .85064E+00 -.70979E+00 .18075E+00 -.29310E+00 .48417E-01 
.03646 .90693E-01 .10016E+01 -.87495E+00 .15734E+00 -.28713E+00 .87576E-01 
.04167 .16214E+00 .11393E+01 -.10346E+01 .13701E+00 -.28635E+00 .11745E+00 
.04687 .22417E+00 .12638E+01 -.11834E+01 .11916E+00 -.28855E+00 .13516E+00 
.05208 .26828E+00 .13770E+01 -.13184E+01 .10356E+00 -.29230E+00 .13812E+00 
.05729 .29048E+00 .14826E+01 -.14391E+01 .90069E-01 -.29681E+00 .12724E+00 
.06250 .29084E+00 .15865E+01 -.15464E+01 .79097E-01 -.30219E+00 .10784E+00 
.06771 .27181E+00 .16955E+01 -.16421E+01 .71211E-01 -.30951E+00 .86929E-01 
.07292 .23713E+00 .18148E+01 -.17285E+01 .66031E-01 -.31992E+00 .69574E-01 
.07812 .19139E+00 .19461E+01 -.18083E+01 .61953E-01 -.33380E+00 .57332E-01 
.08333 .13986E+00 .20875E+01 -.18860E+01 .57438E-01 -.35036E+00 .48409E-01 
.08854 .88368E-01 .22359E+01 -.19682E+01 .52795E-01 -.36845E+00 .40402E-01 
.09375 .42432E-01 .23898E+01 -.20604E+01 .50081E-01 -.38782E+00 .34126E-01 
.09896 .50665E-02 .25488E+01 -.21624E+01 .50224E-01 -.40887E+00 .32854E-01 
.10417 -.24178E-01 .27114E+01 -.22701E+01 .51503E-01 -.43147E+00 .37161E-01 
.10937 -.46325E-01 .28748E+01 -.23819E+01 .51963E-01 -.45492E+00 .43646E-01 
.11458 -.58644E-01 .30366E+01 -.25013E+01 .51567E-01 -.47883E+00 .49362E-01 
.11979 -.54772E-01 .31956E+01 -.26338E+01 .50904E-01 -.50310E+00 .54855E-01 
.12500 -.29681E-01 .33511E+01 -.27815E+01 .49260E-01 -.52741E+00 .61797E-01 
.13021 .15634E-01 .35024E+01 -.29431E+01 .45387E-01 -.55099E+00 .69389E-01 
.13542 .73142E-01 .36498E+01 -.31142E+01 .39849E-01 -.57354E+00 .75061E-01 
.14062 .13159E+00 .37949E+01 -.32878E+01 .35281E-01 -.59592E+00 .78096E-01 
.14583 .18279E+00 .39403E+01 -.34573E+01 .33419E-01 -.61954E+00 .79653E-01 
.15104 .22351E+00 .40868E+01 -.36192E+01 .32934E-01 -.64482E+00 .79269E-01 
.15625 .25212E+00 .42337E+01 -.37724E+01 .31856E-01 -.67090E+00 .74366E-01 
.16146 .26752E+00 .43800E+01 -.39164E+01 .30551E-01 -.69689E+00 .64790E-01 
.16667 .27149E+00 .45258E+01 -.40504E+01 .29943E-01 -.72219E+00 .54635E-01 
.17187 .26735E+00 .46710E+01 -.41748E+01 .29267E-01 -.74604E+00 .46748E-01 
.17708 .25748E+00 .48153E+01 -.42924E+01 .27742E-01 -.76797E+00 .40189E-01 
.18229 .24578E+00 .49597E+01 -.44081E+01 .25763E-01 -.78845E+00 .34628E-01 
.18750 .23796E+00 .51063E+01 -.45268E+01 .23619E-01 -.80866E+00 .32405E-01 
.19271 .23574E+00 .52587E+01 -.46496E+01 .20972E-01 -.82993E+00 .35829E-01 
.19792 .23503E+00 .54199E+01 -.47742E+01 .17748E-01 -.85323E+00 .45209E-01 
.20312 .23206E+00 .55922E+01 -.49007E+01 .14977E-01 -.87894E+00 .59646E-01 
.20833 .22969E+00 .57771E+01 -.50353E+01 .14521E-01 -.90721E+00 .78785E-01 
.21354 .23823E+00 .59748E+01 -.51879E+01 .17394E-01 -.93806E+00 .10442E+00 
.21875 .26841E+00 .61850E+01 -.53651E+01 .22966E-01 -.97143E+00 .13986E+00 
.22396 .31921E+00 .64068E+01 -.55619E+01 .29634E-01 -.10072E+01 .18651E+00 
.22917 .37447E+00 .66379E+01 -.57619E+01 .35289E-01 -.10448E+01 .24096E+00 
.23437 .41753E+00 .68752E+01 -.59520E+01 .38498E-01 -.10826E+01 .29664E+00 
.23958 .44525E+00 .71174E+01 -.61335E+01 .39224E-01 -.11198E+01 .34864E+00 
.24479 .46122E+00 .73665E+01 -.63147E+01 .38390E-01 -.11568E+01 .39448E+00 
.25000 .46673E+00 .76248E+01 -.64997E+01 .37404E-01 -.11956E+01 .43373E+00 
.25521 .46563E+00 .78918E+01 -.66892E+01 .35978E-01 -.12369E+01 .46728E+00 
.26042 .46610E+00 .81614E+01 -.68842E+01 .31622E-01 -.12800E+01 .49492E+00 
.26562 .48015E+00 .84249E+01 -.70908E+01 .21758E-01 -.13224E+01 .51357E+00 
.27083 .51281E+00 .86749E+01 -.73229E+01 .68372E-02 -.13611E+01 .51058E+00 
.27604 .55052E+00 .89096E+01 -.75784E+01 -.62810E-02 -.13953E+01 .48024E+00 
.28125 .57688E+00 .91334E+01 -.78366E+01 -.12326E-01 -.14268E+01 .43462E+00 
.28646 .58440E+00 .93526E+01 -.80826E+01 -.12667E-01 -.14572E+01 .38455E+00 
.29167 .57110E+00 .95773E+01 -.83147E+01 -.75352E-02 -.14892E+01 .33693E+00 
.29687 .54470E+00 .98199E+01 -.85357E+01 .26165E-02 -.15272E+01 .30435E+00 
.30208 .51412E+00 .10083E+02 -.87492E+01 .10584E-01 -.15707E+01 .28795E+00 
.30729 .47111E+00 .10360E+02 -.89493E+01 .12250E-01 -.16167E+01 .27767E+00 
.31250 .40154E+00 .10644E+02 -.91264E+01 .84763E-02 -.16621E+01 .26545E+00 
.31771 .30593E+00 .10931E+02 -.92897E+01 .12931E-02 -.17030E+01 .24538E+00 
.32292 .19429E+00 .11229E+02 -.94610E+01 -.14434E-02 -.17402E+01 .22053E+00 
.32812 .76566E-01 .11547E+02 -.96436E+01 .13614E-02 -.17757E+01 .20566E+00 
.33333 -.53592E-01 .11885E+02 -.98229E+01 .11334E-02 -.18084E+01 .20124E+00 
.33854 -.21474E+00 .12242E+02 -.99817E+01 -.54697E-03 -.18395E+01 .20588E+00 
.34375 -.39932E+00 .12623E+02 -.10131E+02 .82899E-03 -.18704E+01 .22333E+00 
.34896 -.57046E+00 .13027E+02 -.10303E+02 .25600E-02 -.19014E+01 .25521E+00 
.35417 -.69958E+00 .13448E+02 -.10516E+02 -.50215E-02 -.19310E+01 .29600E+00 
.35937 -.81172E+00 .13875E+02 -.10749E+02 -.19316E-01 -.19572E+01 .33722E+00
.36458 -.94616E+00 .14305E+02 -.10973E+02 -.25609E-01 -.19797E+01 .38054E+00 
.36979 -.10901E+01 .14736E+02 -.11195E+02 -.29996E-01 -.19923E+01 .42932E+00 
.37500 -.12500E+01 .15169E+02 -.11415E+02 -.38836E-01 -.19930E+01 .47164E+00 
.38021 -.14768E+01 .15608E+02 -.11605E+02 -.44360E-01 -.19839E+01 .49792E+00 
.38542 -.17695E+01 .16056E+02 -.11762E+02 -.54015E-01 -.19625E+01 .50793E+00 
.39062 -.20970E+01 .16527E+02 -.11920E+02 -.77204E-01 -.19272E+01 .50528E+00
.39583 -.24706E+01 .17043E+02 -.12085E+02 -.10551E+00 -.18851E+01 .49698E+00 
.40104 -.28924E+01 .17620E+02 -.12260E+02 -.14040E+00 -.18351E+01 .49160E+00 
.40625 -.33324E+01 .18272E+02 -.12497E+02 -.17880E+00 -.17761E+01 .48748E+00 
.41146 -.37795E+01 .19004E+02 -.12814E+02 -.21046E+00 -.17129E+01 .48618E+00 
.41667 -.42205E+01 .19788E+02 -.13166E+02 -.25610E+00 -.16409E+01 .50451E+00 
.42188 -.46100E+01 .20583E+02 -.13540E+02 -.33339E+00 -.15565E+01 .54305E+00
.42708 -.49008E+01 .21354E+02 -.13967E+02 -.42667E+00 -.14669E+01 .59204E+00 
.43229 -.50446E+01 .22050E+02 -.14449E+02 -.53011E+00 -.13793E+01 .64678E+00 
.43750 -.49808E+01 .22594E+02 -.14960E+02 -.65989E+00 -.12980E+01 .69558E+00 
.44271 -.46447E+01 .22894E+02 -.15456E+02 -.83005E+00 -.12305E+01 .73201E+00 
.44792 -.39755E+01 .22844E+02 -.15869E+02 -.10382E+01 -.11918E+01 .76987E+00 
.45313 -.29218E+01 .22316E+02 -.16115E+02 -.12615E+01 -.12016E+01 .81581E+00
.45833 -.14681E+01 .21147E+02 -.16086E+02 -.14456E+01 -.12882E+01 .85962E+00 
.46354 .35095E+00 .19173E+02 -.15670E+02 -.15051E+01 -.14821E+01 .86667E+00 
.46875 .23632E+01 .16293E+02 -.14729E+02 -.13020E+01 -.18194E+01 .80570E+00 
.47396 .41189E+01 .12566E+02 -.13053E+02 -.64875E+00 -.23194E+01 .66348E+00 
.47917 .48852E+01 .83418E+01 -.10484E+02 .63705E+00 -.29511E+01 .42910E+00 
.48438 .40675E+01 .43319E+01 -.71183E+01 .23765E+01 -.34861E+01 .17140E+00 
.48958 .21126E+01 .14423E+01 -.36553E+01 .34918E+01 -.33431E+01 .48319E-01 
.49479 .53222E+00 .17429E+00 -.12325E+01 .26044E+01 -.19971E+01 .81285E-01 
.50000 .00000E+00 .00000E+00 .00000E+00 .00000E+00 .00000E+00 .00000E+00 
